"depth (m) ","u (m/s)   ","v (m/s)   ","T (°C)   ","S (g/kg)  ","k (J/kg)  ","eps (W/kg)","num (m2/s)","nuh (m2/s)"
0.000000000000000E+00,3.029715555074705E-01,-2.374653780664920E-01,1.445818582787113E+01,2.999999999999865E-06,1.755499095376741E-04,3.526877154433974E-06,1.447152858595063E-03,9.871607206884852E-04
-1.260000000000003E-01,3.029715555074705E-01,-2.374653780664920E-01,1.445818582787113E+01,2.999999999999865E-06,1.755499095376741E-04,2.980166277134890E-06,1.295603443645280E-03,1.208906924480678E-03
-2.519999999999998E-01,2.975795812441595E-01,-2.371372473534349E-01,1.445602879128750E+01,2.999999999999865E-06,1.755499095376741E-04,2.433455399835810E-06,1.144054028695498E-03,1.430653128272869E-03
-3.780000000000001E-01,2.921876069808485E-01,-2.368091166403777E-01,1.445387175470388E+01,2.999999999999865E-06,1.773373064150807E-04,2.088822431073164E-06,1.385755106672738E-03,1.732129929126721E-03
-5.039999999999996E-01,2.883862883524718E-01,-2.363565308715920E-01,1.445242045100482E+01,2.999999999999865E-06,1.791247032924872E-04,1.744189462310521E-06,1.627456184649976E-03,2.033606729980570E-03
-6.299999999999999E-01,2.845849697240950E-01,-2.359039451028063E-01,1.445096914730576E+01,2.999999999999865E-06,1.819687431110352E-04,1.624564181152523E-06,1.808704297894726E-03,2.259677272555744E-03
-7.560000000000002E-01,2.814694524131821E-01,-2.353554859578207E-01,1.444983788594636E+01,2.999999999999864E-06,1.848127829295831E-04,1.504938899994524E-06,1.989952411139475E-03,2.485747815130919E-03
-8.819999999999997E-01,2.783539351022692E-01,-2.348070268128350E-01,1.444870662458696E+01,2.999999999999864E-06,1.882035586855339E-04,1.475278526499294E-06,2.107775626915789E-03,2.633006175149682E-03
-1.008000000000000E+00,2.755263058620879E-01,-2.341507899346522E-01,1.444773384533393E+01,2.999999999999864E-06,1.915943344414847E-04,1.445618153004064E-06,2.225598842692103E-03,2.780264535168446E-03
-1.133999999999999E+00,2.726986766219067E-01,-2.334945530564694E-01,1.444676106608090E+01,2.999999999999864E-06,1.959805834510440E-04,1.469541469064468E-06,2.298044551017143E-03,2.871322159942300E-03
-1.260000000000000E+00,2.699924904358733E-01,-2.327178449793473E-01,1.444588241929831E+01,2.999999999999864E-06,2.003668324606034E-04,1.493464785124873E-06,2.370490259342184E-03,2.962379784716154E-03
-1.386000000000000E+00,2.672863042498397E-01,-2.319411369022252E-01,1.444500377251572E+01,2.999999999999864E-06,2.054328838336032E-04,1.546222815622545E-06,2.415472820418986E-03,3.019207504191991E-03
-1.512000000000000E+00,2.645631788330740E-01,-2.310145650747825E-01,1.444417212185690E+01,2.999999999999864E-06,2.104989352066030E-04,1.598980846120217E-06,2.460455381495788E-03,3.076035223667829E-03
-1.638000000000000E+00,2.618400534163083E-01,-2.300879932473397E-01,1.444334047119808E+01,2.999999999999864E-06,2.162116810905429E-04,1.662761337404166E-06,2.504673215789055E-03,3.131902224309700E-03
-1.764000000000000E+00,2.590665043192933E-01,-2.290034777453061E-01,1.444254583444804E+01,2.999999999999863E-06,2.219244269744828E-04,1.726541828688115E-06,2.548891050082321E-03,3.187769224951571E-03
-1.890000000000000E+00,2.562929552222784E-01,-2.279189622432725E-01,1.444175119769801E+01,2.999999999999863E-06,2.280354643940593E-04,1.789171422724655E-06,2.603854127728589E-03,3.257004783805041E-03
-2.016000000000000E+00,2.534667226442512E-01,-2.266783269013672E-01,1.444099337942783E+01,2.999999999999863E-06,2.341465018136359E-04,1.851801016761196E-06,2.658817205374858E-03,3.326240342658512E-03
-2.141999999999999E+00,2.506404900662240E-01,-2.254376915594619E-01,1.444023556115765E+01,2.999999999999863E-06,2.399588432533040E-04,1.892579472797937E-06,2.735930447251105E-03,3.423010246058389E-03
-2.268000000000000E+00,2.477762377813040E-01,-2.240517668708515E-01,1.443951824696899E+01,2.999999999999863E-06,2.457711846929722E-04,1.933357928834678E-06,2.813043689127353E-03,3.519780149458267E-03
-2.394000000000000E+00,2.449119854963840E-01,-2.226658421822412E-01,1.443880093278033E+01,2.999999999999863E-06,2.514166121008680E-04,1.962698181565618E-06,2.905986485772833E-03,3.636546497711038E-03
-2.520000000000000E+00,2.421345799022827E-01,-2.212037485979366E-01,1.443815353438389E+01,2.999999999999863E-06,2.570620395087638E-04,1.992038434296558E-06,2.998929282418314E-03,3.753312845963809E-03
-2.646000000000000E+00,2.393571743081813E-01,-2.197416550136320E-01,1.443750613598745E+01,2.999999999999863E-06,2.626779632971686E-04,2.032538865895790E-06,3.076557630262719E-03,3.851028472329553E-03
-2.772000000000000E+00,2.366367883896492E-01,-2.181975455247199E-01,1.443691911680966E+01,2.999999999999863E-06,2.682938870855733E-04,2.073039297495022E-06,3.154185978107125E-03,3.948744098695297E-03
-2.898000000000000E+00,2.339164024711170E-01,-2.166534360358078E-01,1.443633209763187E+01,2.999999999999863E-06,2.739893443869716E-04,2.121830355579893E-06,3.221841540726225E-03,4.034019080911881E-03
-3.024000000000000E+00,2.312208150225633E-01,-2.150159467268564E-01,1.443579695633002E+01,2.999999999999862E-06,2.796848016883699E-04,2.170621413664764E-06,3.289497103345326E-03,4.119294063128465E-03
-3.150000000000000E+00,2.285252275740097E-01,-2.133784574179049E-01,1.443526181502817E+01,2.999999999999862E-06,2.853648126173755E-04,2.218630493716905E-06,3.357918449356994E-03,4.205522173343901E-03
-3.276000000000000E+00,2.258415256895668E-01,-2.116450276043878E-01,1.443477502616196E+01,2.999999999999862E-06,2.910448235463810E-04,2.266639573769047E-06,3.426339795368662E-03,4.291750283559339E-03
-3.402000000000000E+00,2.231578238051239E-01,-2.099115977908707E-01,1.443428823729575E+01,2.999999999999862E-06,2.967108532761151E-04,2.320440716074575E-06,3.487546604888811E-03,4.369055205969211E-03
-3.528000000000000E+00,2.205131507679645E-01,-2.081048391343449E-01,1.443385379817010E+01,2.999999999999862E-06,3.023768830058492E-04,2.374241858380104E-06,3.548753414408959E-03,4.446360128379082E-03
-3.654000000000000E+00,2.178684777308051E-01,-2.062980804778191E-01,1.443341935904444E+01,2.999999999999862E-06,3.082807170793218E-04,2.450559175022404E-06,3.584089597705922E-03,4.491307540539926E-03
-3.780000000000000E+00,2.152222503591854E-01,-2.043939642050874E-01,1.443303020805849E+01,2.999999999999861E-06,3.141845511527944E-04,2.526876491664703E-06,3.619425781002885E-03,4.536254952700770E-03
-3.906000000000000E+00,2.125760229875658E-01,-2.024898479323557E-01,1.443264105707253E+01,2.999999999999861E-06,3.206519527153617E-04,2.632381238144913E-06,3.630252253242321E-03,4.550494290870778E-03
-4.032000000000000E+00,2.098861767888662E-01,-2.004589308236729E-01,1.443229194170256E+01,2.999999999999861E-06,3.271193542779291E-04,2.737885984625124E-06,3.641078725481758E-03,4.564733629040785E-03
-4.157999999999999E+00,2.071963305901667E-01,-1.984280137149900E-01,1.443194282633258E+01,2.999999999999860E-06,3.345469710195388E-04,2.883844793658510E-06,3.628178280379542E-03,4.549200266140441E-03
-4.284000000000000E+00,2.044200062817282E-01,-1.962361576072899E-01,1.443163043809674E+01,2.999999999999860E-06,3.419745877611486E-04,3.029803602691895E-06,3.615277835277326E-03,4.533666903240096E-03
-4.410000000000000E+00,2.016436819732898E-01,-1.940443014995899E-01,1.443131804986089E+01,2.999999999999859E-06,3.508387379316922E-04,3.221602825296136E-06,3.591161371614485E-03,4.503966966399649E-03
-4.536000000000000E+00,1.987091683989882E-01,-1.916305355539071E-01,1.443103799208133E+01,2.999999999999859E-06,3.597028881022357E-04,3.413402047900378E-06,3.567044907951645E-03,4.474267029559201E-03
-4.662000000000000E+00,1.957746548246865E-01,-1.892167696082244E-01,1.443075793430176E+01,2.999999999999859E-06,3.701492671971134E-04,3.652467272075730E-06,3.542164802183903E-03,4.443525951777233E-03
-4.788000000000000E+00,1.926536054734620E-01,-1.865520100928600E-01,1.443051214239995E+01,2.999999999999858E-06,3.805956462919911E-04,3.891532496251082E-06,3.517284696416162E-03,4.412784873995265E-03
-4.914000000000000E+00,1.895325561222375E-01,-1.838872505774957E-01,1.443026635049815E+01,2.999999999999858E-06,3.927878132165508E-04,4.200590421698335E-06,3.483126138486457E-03,4.370321260237728E-03
-5.040000000000000E+00,1.861772197843215E-01,-1.809242286637953E-01,1.443005639631081E+01,2.999999999999858E-06,4.049799801411104E-04,4.509648347145587E-06,3.448967580556753E-03,4.327857646480192E-03
-5.166000000000000E+00,1.828218834464055E-01,-1.779612067500949E-01,1.442984644212347E+01,2.999999999999857E-06,4.192694564869886E-04,4.931677323956745E-06,3.394497591864606E-03,4.259818272874198E-03
-5.292000000000000E+00,1.791479706642445E-01,-1.746171812099006E-01,1.442967378828995E+01,2.999999999999857E-06,4.335589328328668E-04,5.353706300767901E-06,3.340027603172458E-03,4.191778899268204E-03
-5.418000000000000E+00,1.754740578820835E-01,-1.712731556697064E-01,1.442950113445643E+01,2.999999999999857E-06,4.506210321324325E-04,5.957593088007558E-06,3.259538727207086E-03,4.090981576136238E-03
-5.544000000000000E+00,1.713033641859273E-01,-1.673740211640913E-01,1.442936681743822E+01,2.999999999999857E-06,4.676831314319982E-04,6.561479875247214E-06,3.179049851241714E-03,3.990184253004273E-03
-5.670000000000000E+00,1.671326704897711E-01,-1.634748866584763E-01,1.442923250042001E+01,2.999999999999857E-06,4.873397858827741E-04,7.463817773204301E-06,3.057456928716306E-03,3.837686695186741E-03
-5.795999999999999E+00,1.622016923943211E-01,-1.587569130976926E-01,1.442914178154088E+01,2.999999999999858E-06,5.069964403335500E-04,8.366155671161387E-06,2.935864006190899E-03,3.685189137369209E-03
-5.922000000000000E+00,1.572707142988711E-01,-1.540389395369088E-01,1.442905106266176E+01,2.999999999999858E-06,5.277763483345332E-04,9.818968224860611E-06,2.745230898201910E-03,3.445901096178139E-03
-6.048000000000000E+00,1.508266228584452E-01,-1.477526058284201E-01,1.442901333063311E+01,2.999999999999858E-06,5.485562563355164E-04,1.127178077855984E-05,2.554597790212920E-03,3.206613054987068E-03
-6.173999999999999E+00,1.443825314180193E-01,-1.414662721199315E-01,1.442897559860448E+01,2.999999999999858E-06,5.485562563355164E-04,2.950302100628097E-05,1.473308920106505E-03,1.981962317224290E-03
-6.300000000000000E+00,1.443825314180193E-01,-1.414662721199315E-01,1.442897559860448E+01,2.999999999999858E-06,5.485562563355164E-04,4.773426123400210E-05,3.920200500000906E-04,7.573115794615125E-04
